# Potentiometer (belastet) mit 180 Ohm
# U_0 = 4.497 V
# R = 179.7 Ohm
# Skalenwert (0-10), Ausgangsspannung [V]
0.00 0.000 0.001
0.50 0.175 0.001
1.00 0.297 0.001
1.50 0.392 0.001
2.00 0.474 0.001
2.50 0.549 0.001
3.00 0.621 0.001
3.50 0.694 0.001
4.00 0.769 0.001
4.50 0.850 0.001
5.00 0.939 0.001
5.50 1.038 0.001
6.00 1.153 0.001
6.50 1.287 0.001
7.00 1.448 0.001
7.50 1.645 0.001
8.00 1.896 0.001
8.50 2.224 0.001
9.00 2.674 0.001
9.20 2.904 0.001
9.40 3.179 0.001
9.60 3.513 0.001
9.80 3.917 0.001
9.90 4.151 0.001
9.95 4.272 0.001
10.00 4.440 0.001
